time (s)	det(V)
2165.757497	-0.347943	
2165.759497	-0.361561	
2165.761497	-0.375197	
2165.763497	-0.386783	
2165.765497	-0.409809	
2165.767497	-0.419562	
2165.769497	-0.442593	
2165.773496	-0.469709	
2165.777500	-0.494797	
2165.779497	-0.523200	
2165.781497	-0.552490	
2165.783496	-0.575714	
2165.785497	-0.599543	
2165.787497	-0.623230	
2165.789496	-0.644021	
2165.793497	-0.674362	
2165.797497	-0.726868	
2165.799498	-0.783815	
2165.801496	-0.811166	
2165.803497	-0.840529	
2165.805497	-0.876509	
2165.807497	-0.896607	
2165.811497	-0.936411	
2165.815496	-1.004285	
2165.817499	-1.077614	
2165.819497	-1.114524	
2165.821496	-1.152544	
2165.823496	-1.183172	
2165.825497	-1.221250	
2165.827498	-1.259211	
2165.829497	-1.298689	
2165.831496	-1.347609	
2165.833497	-1.389819	
2165.837496	-1.429143	
2165.839497	-1.513792	
2165.841496	-1.551515	
2165.843497	-1.596591	
2165.845497	-1.636128	
2165.847497	-1.662756	
2165.849497	-1.662843	
2165.851497	-1.662906	
2165.853497	-1.662956	
2165.857497	-1.662999	
2165.859497	-1.663045	
2165.861498	-1.663123	
2165.863498	-1.663190	
2165.865497	-1.663220	
2165.867497	-1.663319	
2165.869496	-1.663350	
2165.871497	-1.663395	
2165.873497	-1.663495	
2165.875496	-1.663446	
2165.879497	-1.663573	
2165.881498	-1.663627	
2165.883497	-1.663705	
2165.885496	-1.663780	
2165.887496	-1.663819	
2165.891496	-1.663891	
2165.893498	-1.663928	
2165.895497	-1.663991	
2165.899497	-1.664024	
2165.901497	-1.664059	
2165.903498	-1.664061	
2165.905497	-1.664110	
2165.907498	-1.664131	
2165.909497	-1.664167	
2165.911501	-1.664134	
2165.913496	-1.664210	
2165.915497	-1.664210	
2165.919496	-1.664208	
2165.921497	-1.664148	
2165.923497	-1.664126	
2165.925496	-1.664169	
2165.927496	-1.664152	
2165.929496	-1.664114	
2165.931497	-1.664110	
2165.933497	-1.664088	
2165.935497	-1.664061	
2165.937497	-1.664049	
2165.941497	-1.664052	
2165.943497	-1.663943	
2165.945496	-1.663920	
2165.947497	-1.663841	
2165.949498	-1.663788	
2165.951496	-1.663723	
2165.953496	-1.663643	
2165.955497	-1.663578	
2165.957496	-1.663547	
2165.959497	-1.663409	
2165.963497	-1.663338	
2165.965497	-1.663186	
2165.967497	-1.663113	
2165.969497	-1.663001	
2165.971497	-1.662908	
2165.973497	-1.662835	
2165.975497	-1.640675	
2165.977496	-1.560308	
2165.979497	-1.479360	
2165.981497	-1.402904	
2165.985496	-1.320776	
2165.987497	-1.159538	
2165.989497	-1.065301	
2165.991498	-0.977118	
2165.993498	-0.896912	
2165.995497	-0.807114	
2165.997497	-0.721679	
2165.999497	-0.638098	
2166.001498	-0.556107	
2166.003497	-0.468774	
2166.007496	-0.383847	
2166.009497	-0.193699	
2166.011497	-0.098940	
2166.013497	-0.004978	
2166.015497	0.073915	
2166.017497	0.171424	
2166.019497	0.261369	
2166.023496	0.345164	
2166.025497	0.527116	
2166.029497	0.618993	
2166.031498	0.798331	
2166.033496	0.889682	
2166.035496	0.979609	
2166.037497	1.069447	
2166.039497	1.160742	
2166.043496	1.241436	
2166.045497	1.404319	
2166.049498	1.485809	
2166.051496	1.593995	
2166.053497	1.595054	
2166.055497	1.595124	
2166.057497	1.595146	
2166.059496	1.595130	
2166.061497	1.595199	
2166.065497	1.595164	
2166.069497	1.595199	
2166.071499	1.595169	
2166.073497	1.595135	
2166.075497	1.595153	
2166.077496	1.595169	
2166.079497	1.595148	
2166.081497	1.595169	
2166.085497	1.595169	
2166.089497	1.595248	
2166.091497	1.595183	
2166.093496	1.595165	
2166.095497	1.595165	
2166.097497	1.595185	
2166.099497	1.595148	
2166.101498	1.595197	
2166.105497	1.595195	
2166.109497	1.595226	
2166.111497	1.595166	
2166.113497	1.595141	
2166.115497	1.595159	
2166.117497	1.595193	
2166.119497	1.595140	
2166.121497	1.595153	
2166.125496	1.595193	
2166.129497	1.595199	
2166.131497	1.595193	
2166.133498	1.595172	
2166.135497	1.595149	
2166.137497	1.595150	
2166.139496	1.595126	
2166.141497	1.595145	
2166.145496	1.595141	
2166.149497	1.595222	
2166.151496	1.595175	
2166.153497	1.595131	
2166.155497	1.595166	
2166.157496	1.595198	
2166.159497	1.595125	
2166.161496	1.595172	
2166.163496	1.595184	
2166.167497	1.595208	
2166.169498	1.595196	
2166.171498	1.595129	
2166.173497	1.595137	
2166.175497	1.595146	
2166.177496	1.595091	
2166.179496	1.594837	
2166.181497	1.593400	
2166.183497	1.583298	
2166.185496	1.544079	
2166.187496	1.496907	
2166.191497	1.455986	
2166.193497	1.375596	
2166.195497	1.333570	
2166.197497	1.288141	
2166.199497	1.248668	
2166.201496	1.214688	
2166.205496	1.173671	
2166.207497	1.100857	
2166.211497	1.060707	
2166.213497	0.993439	
2166.215497	0.952114	
2166.217497	0.921175	
2166.219497	0.888803	
2166.221497	0.856397	
2166.225496	0.828174	
2166.227496	0.763676	
2166.231497	0.735390	
2166.233497	0.683015	
2166.235496	0.659270	
2166.237497	0.632397	
2166.239496	0.611540	
2166.241497	0.590519	
2166.245496	0.561559	
2166.247499	0.515025	
2166.251497	0.489967	
2166.253497	0.460530	
2166.255497	0.442953	
2166.257497	0.435365	
2166.259496	0.414807	
2166.261497	0.400066	
2166.263496	0.381976	
2166.267497	0.356287	
2166.271497	0.333535	
2166.273497	0.319316	
2166.275496	0.304240	
2166.277497	0.294339	
2166.279497	0.283727	
2166.281497	0.269932	
2166.283497	0.254880	
2166.287497	0.240051	
2166.291498	0.227873	
2166.293497	0.215994	
2166.295498	0.206397	
2166.297497	0.194260	
2166.299497	0.186126	
2166.301497	0.181065	
2166.303497	0.167099	
2166.307496	0.156138	
2166.311497	0.150911	
2166.313497	0.142026	
2166.315497	0.128954	
2166.317498	0.126657	
2166.319499	0.123411	
2166.321496	0.115315	
2166.323496	0.114418	
2166.325496	0.101991	
2166.329497	0.097848	
2166.331497	0.087466	
2166.333498	0.084838	
2166.335497	0.086074	
2166.337496	0.078868	
2166.339498	0.081465	
2166.341498	0.078720	
2166.343497	0.072552	
2166.345497	0.065889	
2166.347497	0.056467	
2166.351497	0.055384	
2166.353497	0.050860	
2166.355498	0.051790	
2166.357497	0.057087	
2166.359497	0.052047	
2166.361497	0.047842	
2166.363497	0.048303	
2166.367496	0.033632	
2166.369496	0.031368	
2166.373497	0.025076	
2166.375497	0.033239	
2166.377496	0.032634	
2166.379498	0.032075	
2166.381497	0.024763	
2166.383497	0.023865	
2166.387497	0.020943	
2166.391496	0.018402	
2166.393497	0.016051	
2166.395497	0.019130	
2166.397497	0.017242	
2166.399497	0.015535	
2166.401499	0.012820	
2166.403497	0.016192	
2166.407496	0.011668	
2166.409497	0.010813	
2166.413497	0.007924	
2166.415497	0.005466	
2166.417497	0.010889	
2166.419498	0.006025	
2166.421497	0.004889	
2166.423497	0.013116	
2166.427496	0.005657	
2166.429497	0.001858	
2166.433497	-0.002771	
2166.435497	0.004653	
2166.437497	0.000772	
2166.439496	0.006567	
2166.441496	0.006102	
2166.443497	0.005760	
2166.447496	0.005955	
2166.451496	-0.005535	
2166.453497	-0.004424	
2166.455497	0.001551	
2166.457497	0.009795	
2166.459497	0.006088	
2166.461497	0.003902	
2166.463497	0.005382	
2166.467496	-0.004526	
2166.469496	-0.004871	
2166.473497	-0.005843	
2166.475496	0.002449	
2166.477497	0.005203	
2166.479497	0.004586	
2166.481497	-0.000847	
2166.483496	0.003736	
2166.487496	0.000959	
2166.489497	-0.002114	
2166.493497	-0.004405	
2166.495498	0.004962	
2166.497497	0.000822	
2166.499497	-0.002050	
2166.501497	0.003314	
2166.503497	0.001556	
2166.507496	-0.000153	
2166.509497	-0.000255	
2166.513497	0.001187	
2166.515496	-0.001190	
2166.517496	0.002383	
2166.519497	0.000582	
2166.521499	-0.001773	
2166.523496	0.008532	
2166.525497	0.001366	
2166.527496	-0.003367	
2166.529497	0.001639	
2166.531498	-0.005002	
2166.535497	-0.005963	
2166.537497	0.001899	
2166.539496	0.007226	
2166.541497	0.005103	
2166.543497	0.002772	
2166.545497	0.004063	
2166.549496	-0.002018	
2166.551497	-0.004135	
2166.555497	-0.005069	
2166.557497	0.006054	
2166.559496	0.006541	
2166.561497	0.005482	
2166.563497	0.006402	
2166.565496	-0.003549	
2166.569496	-0.002946	
2166.571496	-0.010263	
2166.575497	-0.002519	
2166.577497	0.001980	
2166.579497	0.006001	
2166.581497	0.000375	
2166.583496	0.000272	
2166.585497	0.004164	
2166.589496	-0.004142	
2166.591497	-0.001090	
2166.595497	-0.003732	
2166.597496	0.000719	
2166.599497	-0.000794	
2166.601497	0.000647	
2166.603498	-0.001576	
2166.605497	-0.000218	
2166.609496	0.003075	
2166.611497	-0.000384	
2166.615497	-0.000240	
2166.617498	-0.002742	
2166.619497	0.000484	
2166.621496	-0.003130	
2166.623496	0.004420	
2166.625498	0.004172	
2166.629496	0.001945	
2166.631498	-0.009032	
2166.635497	-0.007885	
2166.637497	-0.005152	
2166.639497	0.000329	
2166.641497	0.000155	
2166.643496	-0.003614	
2166.645497	-0.001939	
2166.649496	-0.011089	
2166.653496	-0.013392	
2166.655497	-0.014418	
2166.657497	-0.005804	
2166.659497	-0.008218	
2166.661496	-0.010798	
2166.663497	-0.011374	
2166.665496	-0.019455	
2166.667496	-0.020605	
2166.669498	-0.028003	
2166.671497	-0.029176	
2166.673497	-0.024852	
2166.677497	-0.027903	
2166.679497	-0.025843	
2166.681497	-0.028795	
2166.683496	-0.032525	
2166.685496	-0.033698	
2166.687497	-0.036130	
2166.691496	-0.037817	
2166.693497	-0.048065	
2166.697497	-0.048091	
2166.699497	-0.052439	
2166.701496	-0.052474	
2166.703497	-0.057504	
2166.705496	-0.061039	
2166.707497	-0.057347	
2166.709497	-0.062274	
2166.713497	-0.073938	
2166.717497	-0.087753	
2166.719497	-0.086294	
2166.721497	-0.092444	
2166.723497	-0.087750	
2166.725497	-0.094541	
2166.727497	-0.098289	
2166.729496	-0.102319	
2166.733497	-0.117855	
2166.737497	-0.125594	
2166.739496	-0.127182	
2166.741497	-0.129271	
2166.743496	-0.136509	
2166.745496	-0.143854	
2166.747497	-0.153395	
2166.749498	-0.161619	
2166.753497	-0.171742	
2166.757497	-0.185897	
2166.759498	-0.193951	
2166.761497	-0.203369	
2166.763496	-0.211476	
2166.765497	-0.229502	
2166.767496	-0.236236	
2166.769498	-0.250191	
2166.773497	-0.265603	
2166.777497	-0.283516	
2166.779497	-0.301394	
2166.781497	-0.319457	
2166.783497	-0.332406	
2166.785496	-0.349480	
2166.787496	-0.365665	
2166.789497	-0.376679	
2166.793497	-0.397001	
2166.797497	-0.428832	
2166.799498	-0.466909	
2166.801497	-0.484723	
2166.803497	-0.506388	
2166.805496	-0.523380	
2166.807497	-0.545536	
2166.809497	-0.569580	
2166.813497	-0.598208	
2166.817497	-0.659419	
2166.819497	-0.703138	
2166.821497	-0.731913	
2166.823496	-0.754417	
2166.825497	-0.789479	
2166.827497	-0.815440	
2166.831496	-0.848133	
2166.833497	-0.922150	
2166.837497	-0.955997	
2166.839497	-1.018785	
2166.841497	-1.051501	
2166.843497	-1.089172	
2166.845496	-1.126426	
2166.847497	-1.167565	
2166.849497	-1.210900	
2166.851497	-1.252092	
2166.853496	-1.292474	
2166.857497	-1.331488	
2166.859497	-1.414270	
2166.861498	-1.455353	
2166.863497	-1.500657	
2166.865497	-1.557470	
2166.867496	-1.599051	
2166.869497	-1.641455	
2166.871497	-1.662767	
2166.873497	-1.662861	
2166.875497	-1.662910	
2166.879497	-1.662963	
2166.881497	-1.663054	
2166.883496	-1.663207	
2166.885497	-1.663193	
2166.887496	-1.663243	
2166.889499	-1.663347	
2166.891497	-1.663395	
2166.893497	-1.663452	
2166.895497	-1.663498	
2166.897498	-1.663617	
2166.901497	-1.663658	
2166.903497	-1.663800	
2166.905497	-1.663880	
2166.907497	-1.663946	
2166.909497	-1.664015	
2166.911497	-1.664070	
2166.913497	-1.664126	
2166.915497	-1.664118	
2166.917498	-1.664167	
2166.919497	-1.664158	
2166.921496	-1.664220	
2166.925497	-1.664225	
2166.927498	-1.664268	
2166.929497	-1.664311	
2166.931496	-1.664273	
2166.933496	-1.664281	
2166.935496	-1.664305	
2166.939496	-1.664319	
2166.943496	-1.664273	
2166.945497	-1.664314	
2166.947496	-1.664318	
2166.949498	-1.664335	
2166.951497	-1.664295	
2166.953498	-1.664317	
2166.955496	-1.664266	
2166.957496	-1.664346	
2166.959497	-1.664299	
2166.961497	-1.664314	
2166.965496	-1.664278	
2166.967497	-1.664259	
2166.969497	-1.664264	
2166.971497	-1.664181	
2166.973496	-1.664195	
2166.975497	-1.664178	
2166.977497	-1.664123	
2166.979497	-1.664051	
2166.981497	-1.664031	
2166.983498	-1.663949	
2166.985497	-1.663844	
2166.989497	-1.663695	
2166.991497	-1.663550	
2166.993496	-1.663505	
2166.995497	-1.663371	
2166.997496	-1.663323	
2166.999497	-1.663245	
2167.001497	-1.663149	
2167.003497	-1.663138	
2167.005497	-1.662962	
2167.007498	-1.662857	
2167.011497	-1.627834	
2167.013497	-1.445478	
2167.015497	-1.363332	
2167.017497	-1.278260	
2167.019497	-1.191493	
2167.021496	-1.101560	
2167.023497	-1.004894	
2167.025497	-0.921266	
2167.027497	-0.829410	
2167.031496	-0.734110	
2167.033498	-0.545833	
2167.035497	-0.446945	
2167.037497	-0.356002	
2167.039498	-0.248372	
2167.041497	-0.149606	
2167.043497	-0.047753	
2167.045497	0.051765	
2167.047496	0.140016	
2167.049498	0.239183	
2167.051497	0.339011	
2167.055497	0.431657	
2167.057497	0.637503	
2167.059497	0.735738	
2167.061497	0.833316	
2167.063497	0.930141	
2167.065496	1.020829	
2167.067497	1.116774	
2167.071497	1.204255	
2167.075497	1.392852	
2167.077498	1.573753	
2167.079496	1.594606	
2167.081497	1.595142	
2167.083498	1.595154	
2167.085496	1.595140	
2167.087497	1.595192	
2167.091496	1.595223	
2167.095497	1.595250	
2167.097497	1.595203	
2167.099497	1.595136	
2167.101496	1.595157	
2167.103497	1.595184	
2167.105497	1.595188	
2167.107497	1.595258	
2167.111496	1.595210	
2167.115497	1.595225	
2167.117497	1.595224	
2167.119497	1.595177	
2167.121498	1.595205	
2167.123497	1.595175	
2167.125497	1.595138	
2167.127496	1.595178	
2167.129496	1.595216	
2167.133497	1.595229	
2167.135497	1.595207	
2167.137497	1.595214	
2167.139498	1.595199	
2167.141497	1.595164	
2167.143497	1.595176	
2167.145497	1.595167	
2167.147497	1.595151	
2167.149497	1.595206	
2167.151496	1.595217	
2167.153496	1.595223	
2167.157497	1.595240	
2167.159497	1.595209	
2167.161497	1.595199	
2167.163496	1.595170	
2167.165497	1.595154	
2167.167497	1.595178	
2167.171496	1.595186	
2167.173497	1.595256	
2167.177497	1.595265	
2167.179497	1.595203	
2167.181496	1.595177	
2167.183497	1.595165	
2167.185497	1.595161	
2167.187497	1.595170	
2167.191497	1.595140	
2167.193497	1.595221	
2167.197497	1.595225	
2167.199498	1.595170	
2167.201496	1.595174	
2167.203497	1.595165	
2167.205496	1.595166	
2167.207497	1.595115	
2167.211496	1.595134	
2167.213497	1.595174	
2167.217497	1.595017	
2167.219497	1.592010	
2167.221497	1.568823	
2167.223497	1.527074	
2167.225497	1.476951	
2167.227496	1.428463	
2167.231496	1.385199	
2167.233497	1.287689	
2167.237497	1.245675	
2167.239497	1.173385	
2167.241496	1.137967	
2167.243497	1.098578	
2167.245497	1.062488	
2167.247497	1.021525	
2167.249497	0.983284	
2167.253497	0.944827	
2167.257497	0.878935	
2167.259497	0.823335	
2167.261497	0.794642	
2167.263496	0.766232	
2167.265496	0.731677	
2167.267496	0.707100	
2167.269496	0.677337	
2167.273497	0.644934	
2167.277497	0.603375	
2167.279497	0.570157	
2167.281496	0.540655	
2167.283497	0.519382	
2167.285497	0.498908	
2167.287497	0.479633	
2167.289497	0.462076	
2167.291496	0.441960	
2167.295497	0.426302	
2167.297496	0.391828	
2167.299497	0.382284	
2167.301496	0.370463	
2167.303497	0.353379	
2167.305497	0.342165	
2167.307497	0.333635	
2167.309497	0.321239	
2167.311497	0.303462	
2167.313497	0.292047	
2167.315496	0.273230	
2167.319498	0.260806	
2167.321497	0.245589	
2167.323497	0.246013	
2167.325496	0.232187	
2167.327497	0.223949	
2167.329498	0.217333	
2167.333496	0.199183	
2167.337496	0.178290	
2167.339497	0.167212	
2167.341497	0.165803	
2167.343497	0.159171	
2167.345496	0.155615	
2167.347498	0.142699	
2167.349497	0.138984	
2167.353496	0.131104	
2167.355496	0.118113	
2167.359497	0.115367	
2167.361496	0.111061	
2167.363497	0.105259	
2167.365497	0.096907	
2167.367497	0.089939	
2167.369497	0.089472	
2167.373496	0.081052	
2167.375497	0.074151	
2167.379497	0.073468	
2167.381497	0.066427	
2167.383497	0.067614	
2167.385497	0.063658	
2167.387497	0.054832	
2167.389496	0.056648	
2167.393496	0.055078	
2167.395497	0.050465	
2167.399497	0.041429	
2167.401496	0.042553	
2167.403496	0.038467	
2167.405497	0.041745	
2167.407497	0.040277	
2167.409496	0.039345	
2167.411497	0.034236	
2167.415496	0.028644	
2167.419497	0.021155	
2167.421497	0.020589	
2167.423496	0.030766	
2167.425497	0.025871	
2167.427497	0.022480	
2167.429497	0.025113	
2167.431497	0.015579	
2167.435497	0.013445	
2167.439497	0.004785	
2167.441497	0.016725	
2167.443497	0.015970	
2167.445498	0.017518	
2167.447496	0.009697	
2167.449497	0.009397	
2167.453497	0.007936	
2167.455497	0.003518	
2167.459497	0.005038	
2167.461497	0.010212	
2167.463497	0.009102	
2167.465496	0.004546	
2167.467498	0.003181	
2167.469497	0.003148	
2167.473496	0.001728	
2167.475496	-0.000955	
2167.479497	0.002787	
2167.481497	-0.000365	
2167.483497	0.006656	
2167.485497	0.001864	
2167.487497	-0.001710	
2167.489497	0.007543	
2167.493496	0.002856	
2167.495497	0.001878	
2167.499497	-0.004762	
2167.501496	0.001660	
2167.503497	0.000325	
2167.505497	0.006521	
2167.507497	0.003827	
2167.509496	0.003268	
2167.513497	0.003144	
2167.515497	-0.005102	
2167.519498	-0.006412	
2167.521497	-0.001085	
2167.523497	0.006096	
2167.525497	0.003376	
2167.527497	0.005445	
2167.529499	0.007498	
2167.533496	-0.004221	
2167.535497	-0.003718	
2167.539497	-0.008522	
2167.541497	0.001859	
2167.543496	0.003300	
2167.545497	0.007318	
2167.547497	-0.000620	
2167.549497	-0.000139	
2167.553496	-0.003122	
2167.555497	-0.004014	
2167.559497	-0.003861	
2167.561497	0.003154	
2167.563497	0.001985	
2167.565497	-0.001901	
2167.567497	-0.001469	
2167.569497	-0.000545	
2167.573496	-0.007685	
2167.575497	-0.002179	
2167.579497	-0.002478	
2167.581496	-0.003285	
2167.583497	0.001517	
2167.585497	-0.000788	
2167.587497	-0.004530	
2167.589497	0.001383	
2167.593496	-0.001094	
2167.595497	0.001162	
2167.599497	-0.007648	
2167.601497	-0.000007	
2167.603497	-0.002845	
2167.605497	0.003906	
2167.607496	0.004246	
2167.609497	0.003961	
2167.613496	0.003820	
2167.615497	-0.006041	
2167.619497	-0.005370	
2167.621497	-0.002562	
2167.623497	0.009709	
2167.625497	0.004255	
2167.627497	0.004669	
2167.629496	0.007530	
2167.633496	-0.002297	
2167.635497	-0.007068	
2167.639498	-0.007855	
2167.641497	0.002404	
2167.643498	0.004499	
2167.645497	0.008701	
2167.647497	-0.001829	
2167.649497	0.001920	
2167.653496	-0.002543	
2167.657496	-0.002441	
2167.659498	-0.003816	
2167.661497	0.002662	
2167.663497	-0.001449	
2167.665497	-0.000577	
2167.667497	-0.005107	
2167.669497	-0.002428	
2167.673496	-0.007772	
2167.675496	-0.006608	
2167.679498	-0.004561	
2167.681497	-0.010754	
2167.683496	-0.006239	
2167.685496	-0.007033	
2167.687497	-0.013298	
2167.689496	-0.004136	
2167.693496	-0.008431	
2167.695497	-0.009447	
2167.699497	-0.021688	
2167.701497	-0.015525	
2167.703497	-0.018024	
2167.705497	-0.013233	
2167.707498	-0.013238	
2167.709496	-0.016323	
2167.713496	-0.018140	
2167.715497	-0.030240	
2167.719497	-0.027397	
2167.721497	-0.029470	
2167.723496	-0.020193	
2167.725496	-0.026463	
2167.727497	-0.025594	
2167.729497	-0.025491	
2167.733496	-0.038114	
2167.735499	-0.041319	
2167.739497	-0.043827	
2167.741497	-0.037990	
2167.743497	-0.036781	
2167.745497	-0.036901	
2167.747497	-0.047521	
2167.749498	-0.047054	
2167.753496	-0.053201	
2167.757496	-0.056972	
2167.759499	-0.060328	
2167.761497	-0.058289	
2167.763496	-0.061095	
2167.765496	-0.064703	
2167.767496	-0.071545	
2167.769497	-0.075039	
2167.773496	-0.083622	
2167.775497	-0.087567	
2167.779497	-0.090210	
2167.781497	-0.099179	
2167.783496	-0.101262	
2167.785497	-0.108801	
2167.787499	-0.117871	
2167.789497	-0.113590	
2167.793496	-0.124036	
2167.795497	-0.138819	
2167.799497	-0.148618	
2167.801498	-0.158638	
2167.803497	-0.164399	
2167.805497	-0.168257	
2167.807497	-0.174629	
2167.809497	-0.184487	
2167.811497	-0.193571	
2167.815497	-0.210050	
2167.819497	-0.230025	
2167.821497	-0.245070	
2167.823498	-0.247218	
2167.825497	-0.259260	
2167.827497	-0.271153	
2167.829497	-0.278098	
2167.831497	-0.304000	
2167.835497	-0.317690	
2167.839498	-0.345268	
2167.841497	-0.361462	
2167.843497	-0.375645	
2167.845497	-0.384412	
2167.847497	-0.406664	
2167.849497	-0.421328	
2167.851497	-0.437829	
2167.855497	-0.458117	
2167.859498	-0.487999	
2167.861497	-0.515139	
2167.863496	-0.537822	
2167.865497	-0.559071	
2167.867496	-0.580700	
2167.869497	-0.599875	
2167.871497	-0.627154	
2167.875497	-0.645198	
2167.879497	-0.693367	
2167.881497	-0.746801	
2167.883496	-0.769451	
2167.885497	-0.795424	
2167.887496	-0.827906	
2167.889496	-0.848948	
2167.893496	-0.882220	
