num crossings	time (s)	maj axis (mm)	min axis (mm)	theta (rad )	slope (V/s)
2977	3226.490552	69.239376	13.949755	0.490446	40.957299
2981	3230.661170	69.023183	13.919518	0.495722	43.931283
2983	3232.745950	68.954689	13.922872	0.498553	41.361777
2985	3234.830034	68.871334	13.911378	0.501716	48.117566
2989	3239.001300	68.745162	13.899512	0.507611	45.571519
2991	3241.085053	68.715524	13.936593	0.509798	42.247134
2993	3243.169535	68.670130	13.928243	0.511006	46.367936
2995	3245.252609	68.558127	13.942434	0.512262	44.484235
2997	3247.337329	68.459083	13.931255	0.513960	46.025181
3001	3251.507786	68.129862	13.898624	0.518741	45.032114
3003	3253.593339	68.029019	13.902716	0.522004	41.878040
3005	3255.678745	67.940954	13.906243	0.525923	42.709429
3009	3259.849192	67.880168	13.886318	0.532136	45.614696
3011	3261.934578	67.854435	13.905416	0.533426	44.017764
3013	3264.018166	67.758170	13.911243	0.534903	43.920342
3015	3266.101932	67.635508	13.926017	0.536885	42.808613
3017	3268.186608	67.528054	13.921004	0.539392	44.563229
3021	3272.355856	67.325785	13.922433	0.544601	41.704610
3023	3274.440595	67.230673	13.913260	0.547117	42.544037
3025	3276.526658	67.140656	13.909008	0.549468	43.483696
3027	3278.612095	67.069377	13.894798	0.551917	42.576667
3031	3282.783735	66.919402	13.889724	0.557084	42.506047
3033	3284.868126	66.854823	13.880866	0.559421	42.398211
3035	3286.952414	66.787066	13.880732	0.562018	40.642418
3037	3289.036912	66.744358	13.878420	0.565191	41.061942
3039	3291.119721	66.700324	13.877036	0.568886	40.784634
3043	3295.289551	66.366923	13.888313	0.575531	41.141507
3045	3297.374047	66.246234	13.908976	0.577188	41.041317
3047	3299.459794	66.143578	13.909002	0.578708	41.320846
3049	3301.544997	66.100154	13.907455	0.580654	40.259352
3051	3303.630566	66.048237	13.893591	0.582976	42.181719
3055	3307.801381	65.874018	13.893295	0.588847	39.928456
3057	3309.885806	65.797366	13.892264	0.591943	40.874948
3059	3311.971128	65.692576	13.888228	0.594752	40.550336
3061	3314.055643	65.636167	13.883569	0.597446	41.450519
3065	3318.224674	65.473186	13.892794	0.602327	38.879660
3067	3320.309260	65.406628	13.897071	0.603991	40.268287
3069	3322.392900	65.317451	13.905646	0.606301	40.194388
3073	3326.560940	65.120412	13.905814	0.610607	39.647203
3075	3328.645999	65.017299	13.883522	0.612850	39.135957
3077	3330.730874	64.959974	13.863953	0.614819	38.511059
3079	3332.816234	64.829648	13.842458	0.617192	37.580601
3081	3334.902452	64.694072	13.834975	0.619929	38.246699
3085	3339.073232	64.500578	13.827416	0.626922	38.753095
3087	3341.158491	64.505027	13.840747	0.630073	37.787107
3089	3343.243144	64.471513	13.833161	0.632210	38.816484
3091	3345.326931	64.396905	13.829967	0.633684	38.787613
3095	3349.496477	64.226504	13.856271	0.637443	39.114462
3097	3351.580243	64.128513	13.856793	0.639858	37.904418
3099	3353.665044	64.044087	13.857096	0.642242	38.395226
3101	3355.750148	63.963546	13.839477	0.644616	38.422189
3103	3357.835513	63.879303	13.825470	0.647043	38.345357
3105	3359.920726	63.787630	13.802553	0.649698	38.424441
3109	3364.090942	63.624802	13.768937	0.654250	38.142142
3111	3366.175673	63.549539	13.743666	0.655848	36.678930
3113	3368.259519	63.517338	13.736813	0.658241	37.086314
3117	3372.427070	63.397267	13.704351	0.664637	38.063721
3119	3374.511330	63.345112	13.706246	0.668111	37.065128
3121	3376.595603	63.231268	13.710907	0.670869	37.727633
3125	3380.765133	62.993712	13.705915	0.675529	37.932346
3127	3382.849945	62.896994	13.706060	0.677083	36.645368
3129	3384.935080	62.815059	13.702709	0.679127	36.836984
3133	3389.105364	62.671485	13.686055	0.683583	37.904899
3135	3391.190116	62.624638	13.665031	0.686120	36.331716
3137	3393.275179	62.556149	13.658818	0.688616	37.736096
3141	3397.444497	62.414311	13.644507	0.693522	37.315713
3143	3399.530079	62.321178	13.636978	0.695782	37.857275
3147	3403.698195	62.206233	13.617476	0.700400	36.782822
3149	3405.782569	62.125910	13.607997	0.702203	36.809379
3151	3407.866666	62.101557	13.596327	0.704559	36.851496
3155	3412.036380	61.888470	13.560044	0.708180	36.471027
3157	3414.121602	61.799080	13.543053	0.710303	35.296650
3159	3416.206879	61.675878	13.535637	0.712745	35.439142
3161	3418.292359	61.562692	13.542883	0.715640	35.094728
3163	3420.378554	61.441464	13.540483	0.718809	35.855129
3167	3424.548597	61.316704	13.515958	0.724544	35.415961
3169	3426.633069	61.275012	13.512203	0.726857	36.156366
3171	3428.717364	61.211128	13.492011	0.728657	35.734644
3173	3430.800835	61.118017	13.492196	0.730630	35.762197
3175	3432.885615	61.042477	13.492446	0.732325	35.637663
3177	3434.970387	60.955183	13.484937	0.734853	34.402767
3179	3437.055170	60.839550	13.479009	0.737075	34.070613
3181	3439.139950	60.759464	13.464741	0.739225	34.919142
3183	3441.224897	60.711829	13.451078	0.741483	35.533114
3185	3443.310549	60.608441	13.435548	0.743841	34.365702
3187	3445.395761	60.524713	13.419555	0.745764	34.704893
3191	3449.564308	60.388072	13.382716	0.749574	34.172568
3193	3451.647775	60.403197	13.355924	0.751858	33.645728
3197	3455.816126	60.296486	13.326016	0.757713	33.688357
3199	3457.899958	60.262747	13.321987	0.761087	33.427598
3203	3462.068973	60.029269	13.313694	0.766508	33.367049
3205	3464.153354	59.908618	13.304841	0.768820	33.756715
3207	3466.238120	59.861991	13.299719	0.770829	33.381903
3209	3468.322864	59.784800	13.291255	0.772894	34.047157
3211	3470.407735	59.718754	13.268715	0.774930	32.993523
3215	3474.578071	59.533770	13.245678	0.779045	33.134040
3217	3476.662155	59.498691	13.221788	0.781091	33.730773
3221	3480.831500	59.365028	13.203120	0.785348	33.314716
3223	3482.915664	59.328974	13.171895	0.787576	33.026993
3227	3487.084927	59.168350	13.146623	0.791601	33.205735
3229	3489.169930	59.108914	13.114357	0.793589	33.004028
3231	3491.254393	59.054434	13.081768	0.795364	32.465872
3233	3493.339661	58.990601	13.051423	0.797300	32.507984
3237	3497.510193	58.748295	13.020262	0.801358	32.348168
3241	3501.681297	58.535922	13.004536	0.807002	32.968443
3243	3503.766446	58.511672	12.984707	0.809976	31.576107
3247	3507.935627	58.428499	12.954761	0.814754	32.016978
3249	3510.019702	58.370950	12.944245	0.816525	31.445410
3251	3512.104423	58.299018	12.933917	0.818286	32.098322
3253	3514.189023	58.242953	12.915928	0.820311	32.231845
3255	3516.273508	58.114405	12.905067	0.822435	32.490305
3257	3518.358028	58.076196	12.886683	0.824260	32.498701
3259	3520.442649	58.012022	12.859103	0.826550	31.017323
3261	3522.528091	57.912820	12.837230	0.828515	33.172161
3263	3524.612862	57.839836	12.809394	0.830830	32.801191
3265	3526.697952	57.805141	12.790739	0.832615	32.615556
3269	3530.866169	57.702574	12.745695	0.836174	31.570938
3273	3535.034665	57.607642	12.709200	0.840793	31.561563
3277	3539.202536	57.562548	12.662981	0.846245	31.793182
3279	3541.286195	57.515809	12.651249	0.849190	30.270701
3283	3545.455867	57.374806	12.631165	0.854147	31.814126
3285	3547.540388	57.289577	12.617946	0.856099	31.519538
3289	3551.709235	57.134026	12.595808	0.860207	31.144465
3291	3553.794717	57.097418	12.570444	0.862254	30.840557
3295	3557.963455	56.986496	12.538693	0.866174	31.209503
3297	3560.048219	56.923637	12.518281	0.868289	31.179346
3299	3562.132852	56.874281	12.497494	0.870136	31.669701
3303	3566.302386	56.719345	12.446206	0.873727	30.288755
3305	3568.387074	56.631064	12.409742	0.875592	30.788712
3307	3570.471955	56.530401	12.390103	0.877245	29.572278
3309	3572.557362	56.462427	12.362193	0.879253	30.082504
3313	3576.728292	56.239507	12.338304	0.883752	30.566810
3315	3578.813315	56.168199	12.335097	0.886676	30.349916
3319	3582.983605	56.011437	12.303325	0.891752	30.034922
3321	3585.068376	56.005467	12.282054	0.893943	30.447336
3325	3589.236876	55.885882	12.243214	0.897802	30.146112
3327	3591.320867	55.820668	12.215800	0.899794	29.703613
3329	3593.405485	55.765342	12.191925	0.901832	29.231030
3331	3595.490276	55.680570	12.172584	0.903580	30.370566
3333	3597.575154	55.612610	12.137369	0.905697	30.219925
3335	3599.659863	55.554820	12.117889	0.907482	29.884204
3337	3601.744633	55.474075	12.087501	0.909403	29.366997
3341	3605.914339	55.331508	12.049266	0.912796	30.113080
3343	3607.998111	55.326013	12.014455	0.914201	28.976200
3345	3610.082489	55.310396	11.981764	0.916022	28.776278
3349	3614.249369	55.245117	11.937780	0.920340	28.461791
3353	3618.418083	55.165094	11.885952	0.925222	29.353283
3357	3622.586477	55.046065	11.830318	0.929760	28.498225
3359	3624.672013	54.993188	11.802501	0.931907	29.391980
3361	3626.755954	54.918653	11.794590	0.934068	29.537285
3363	3628.840287	54.877985	11.769677	0.935918	29.864826
3365	3630.924478	54.821305	11.749406	0.937773	29.778676
3367	3633.009548	54.750575	11.728757	0.939362	31.131662
