time (s)	det(V)
4192.765499	1.595203	
4192.767498	1.595186	
4192.771499	1.595216	
4192.773498	1.595232	
4192.775499	1.595154	
4192.777499	1.595144	
4192.779499	1.595180	
4192.781499	1.595152	
4192.783499	1.595150	
4192.785506	1.595209	
4192.787499	1.595149	
4192.789499	1.595194	
4192.791498	1.595168	
4192.795499	1.595159	
4192.797499	1.595187	
4192.799499	1.595153	
4192.801499	1.595118	
4192.803499	1.595134	
4192.805499	1.595101	
4192.809498	1.595039	
4192.811499	1.593755	
4192.815499	1.587782	
4192.817498	1.508281	
4192.819500	1.463609	
4192.821498	1.409084	
4192.823498	1.371410	
4192.825498	1.327715	
4192.827498	1.283382	
4192.831498	1.250146	
4192.835499	1.167753	
4192.837500	1.098681	
4192.839499	1.063047	
4192.841499	1.025161	
4192.843499	0.988271	
4192.845499	0.961258	
4192.847498	0.925521	
4192.851499	0.888377	
4192.855499	0.824147	
4192.857498	0.769902	
4192.859499	0.739882	
4192.861498	0.715932	
4192.863498	0.689566	
4192.865498	0.661091	
4192.867498	0.635838	
4192.871499	0.609002	
4192.875499	0.555321	
4192.877501	0.513468	
4192.879499	0.501979	
4192.881500	0.477565	
4192.883499	0.455915	
4192.885499	0.446424	
4192.887499	0.418262	
4192.891499	0.399091	
4192.895499	0.360942	
4192.897499	0.344781	
4192.899498	0.330965	
4192.901498	0.317599	
4192.903498	0.301555	
4192.905499	0.285569	
4192.907498	0.274997	
4192.909501	0.257106	
4192.913499	0.247393	
4192.915499	0.225430	
4192.917499	0.221255	
4192.919499	0.216269	
4192.921499	0.195620	
4192.923508	0.190311	
4192.925499	0.182345	
4192.927500	0.173030	
4192.929499	0.169828	
4192.931498	0.154972	
4192.935499	0.149658	
4192.937500	0.134113	
4192.939498	0.131020	
4192.941499	0.128798	
4192.943499	0.118553	
4192.945499	0.117830	
4192.947498	0.115477	
4192.951498	0.106772	
4192.953498	0.092356	
4192.957498	0.084368	
4192.959499	0.084496	
4192.961499	0.084438	
4192.963499	0.082615	
4192.965499	0.076895	
4192.967499	0.077523	
4192.969498	0.073704	
4192.973498	0.054279	
4192.977498	0.055716	
4192.979499	0.061454	
4192.981499	0.055401	
4192.983498	0.054385	
4192.985499	0.055307	
4192.987499	0.044666	
4192.989498	0.041766	
4192.993499	0.034226	
4192.997499	0.034327	
4192.999498	0.035385	
4193.001499	0.039711	
4193.003499	0.030954	
4193.005499	0.027020	
4193.007499	0.028406	
4193.009501	0.024499	
4193.013498	0.019122	
4193.017499	0.015831	
4193.019498	0.022965	
4193.021499	0.015058	
4193.023499	0.014593	
4193.025499	0.014059	
4193.027499	0.010913	
4193.029499	0.019238	
4193.033499	0.007754	
4193.037499	0.006810	
4193.039499	0.007520	
4193.041499	0.006564	
4193.043499	0.004210	
4193.045500	0.007695	
4193.047499	0.006787	
4193.051498	0.003354	
4193.053499	-0.003679	
4193.057499	-0.007958	
4193.059498	-0.000268	
4193.061499	0.002391	
4193.063498	0.003533	
4193.065501	0.003518	
4193.067499	0.001907	
4193.071498	0.002566	
4193.073498	-0.008651	
4193.077499	-0.007527	
4193.079499	0.006096	
4193.081498	-0.000342	
4193.083498	0.002310	
4193.085499	0.003497	
4193.087499	-0.001917	
4193.091498	-0.001872	
4193.093499	-0.009850	
4193.097499	-0.007163	
4193.099499	0.001439	
4193.101499	0.004220	
4193.103498	-0.000649	
4193.105498	-0.003655	
4193.107499	0.002592	
4193.111498	-0.002302	
4193.113498	-0.003052	
4193.117499	-0.002196	
4193.119499	0.004152	
4193.121499	-0.003085	
4193.123498	0.000310	
4193.125499	0.000555	
4193.127500	-0.000293	
4193.131498	0.009159	
4193.135498	-0.000600	
4193.137499	-0.004240	
4193.139499	0.004306	
4193.141499	0.001933	
4193.143499	-0.000180	
4193.145499	0.003942	
4193.147499	0.006423	
4193.151499	0.002720	
4193.153499	-0.005296	
4193.157500	-0.005115	
4193.159499	0.002286	
4193.161499	0.003661	
4193.163498	0.004052	
4193.165499	0.004520	
4193.167498	0.005844	
4193.171498	0.004097	
4193.173499	-0.006811	
4193.177499	-0.006312	
4193.179499	0.007754	
4193.181499	0.003135	
4193.183500	0.004579	
4193.185500	0.006229	
4193.187498	-0.001087	
4193.191498	-0.000438	
4193.195498	-0.007133	
4193.197506	-0.003046	
4193.199499	0.003236	
4193.201499	0.008068	
4193.203499	-0.001354	
4193.205498	-0.001712	
4193.207499	0.001690	
4193.211498	-0.000488	
4193.215498	-0.000674	
4193.217499	-0.000036	
4193.219499	0.004857	
4193.221499	-0.002988	
4193.223499	0.000026	
4193.225499	0.000333	
4193.227499	-0.000588	
4193.231498	0.008471	
4193.233498	-0.002558	
4193.237499	0.000310	
4193.239498	0.003084	
4193.241499	0.001456	
4193.243500	0.000322	
4193.245498	0.005614	
4193.247499	0.004573	
4193.251498	0.001043	
4193.253499	-0.004622	
4193.257499	-0.006680	
4193.259498	0.001288	
4193.261499	0.003259	
4193.263499	0.005222	
4193.265499	0.001641	
4193.267499	0.004732	
4193.271498	0.001213	
4193.275498	-0.007431	
4193.277499	-0.011494	
4193.279498	0.005594	
4193.281499	-0.003429	
4193.283499	-0.000635	
4193.285498	0.000875	
4193.287501	-0.005875	
4193.291498	-0.007867	
4193.293499	-0.018902	
4193.297499	-0.014537	
4193.299499	-0.009300	
4193.301499	-0.008768	
4193.303499	-0.018232	
4193.305498	-0.015459	
4193.307500	-0.018003	
4193.311498	-0.020901	
4193.315498	-0.025218	
4193.317499	-0.027485	
4193.319500	-0.025179	
4193.321499	-0.035282	
4193.323499	-0.033811	
4193.325499	-0.034417	
4193.327499	-0.039657	
4193.331498	-0.034034	
4193.333499	-0.047019	
4193.337500	-0.045887	
4193.339499	-0.053448	
4193.341498	-0.053927	
4193.343498	-0.061729	
4193.345499	-0.060700	
4193.347499	-0.061099	
4193.351498	-0.064513	
4193.353499	-0.081872	
4193.357499	-0.083519	
4193.359499	-0.083999	
4193.361499	-0.086570	
4193.363499	-0.089103	
4193.365498	-0.093808	
4193.367499	-0.097133	
4193.371498	-0.101178	
4193.373499	-0.125106	
4193.377499	-0.128464	
4193.379499	-0.127219	
4193.381499	-0.136527	
4193.383499	-0.142240	
4193.385499	-0.146059	
4193.387499	-0.157556	
4193.391498	-0.166355	
4193.393498	-0.188561	
4193.397499	-0.190948	
4193.399499	-0.202250	
4193.401499	-0.208472	
4193.403499	-0.223785	
4193.405499	-0.235530	
4193.407499	-0.242220	
4193.411498	-0.256738	
4193.413499	-0.279476	
4193.417499	-0.294118	
4193.419499	-0.312217	
4193.421500	-0.335081	
4193.423500	-0.346793	
4193.425498	-0.363310	
4193.427498	-0.380170	
4193.431498	-0.384697	
4193.433499	-0.429804	
4193.437499	-0.448016	
4193.439500	-0.483527	
4193.441498	-0.504039	
4193.443498	-0.529105	
4193.445499	-0.548860	
4193.447499	-0.570794	
4193.451498	-0.597258	
4193.453499	-0.654909	
4193.457499	-0.683153	
4193.459499	-0.733897	
4193.461498	-0.759102	
4193.463499	-0.791757	
4193.465500	-0.823006	
4193.467500	-0.853857	
4193.471499	-0.887991	
4193.473499	-0.966650	
4193.477499	-1.004431	
4193.479499	-1.066442	
4193.481499	-1.111042	
4193.483499	-1.145163	
4193.485500	-1.188816	
4193.487498	-1.235397	
4193.489499	-1.277248	
4193.491499	-1.323257	
4193.495499	-1.371621	
4193.497499	-1.456928	
4193.499499	-1.502803	
4193.501498	-1.546548	
4193.503499	-1.598312	
4193.505500	-1.649204	
4193.507499	-1.662875	
4193.509499	-1.662879	
4193.511499	-1.663002	
4193.515498	-1.663026	
4193.517498	-1.663165	
4193.519499	-1.663213	
4193.521498	-1.663281	
4193.523498	-1.663376	
4193.525499	-1.663397	
4193.527499	-1.663442	
4193.529498	-1.663485	
4193.531499	-1.663555	
4193.533502	-1.663649	
4193.537498	-1.663704	
4193.539499	-1.663842	
4193.541499	-1.663932	
4193.543499	-1.663956	
4193.545498	-1.664019	
4193.547499	-1.664067	
4193.549499	-1.664118	
4193.551499	-1.664180	
4193.553499	-1.664184	
4193.555499	-1.664181	
4193.559499	-1.664263	
4193.561500	-1.664221	
4193.563499	-1.664272	
4193.565499	-1.664345	
4193.567500	-1.664301	
4193.569499	-1.664341	
4193.571499	-1.664340	
4193.573498	-1.664353	
4193.575500	-1.664351	
4193.577499	-1.664336	
4193.581499	-1.664368	
4193.583499	-1.664350	
4193.585498	-1.664302	
4193.587499	-1.664358	
4193.589499	-1.664332	
4193.591499	-1.664337	
4193.593499	-1.664336	
4193.595499	-1.664293	
4193.597499	-1.664315	
4193.599499	-1.664287	
4193.603498	-1.664272	
4193.605499	-1.664249	
4193.607498	-1.664173	
4193.609499	-1.664164	
4193.611499	-1.664048	
4193.613499	-1.664026	
4193.615498	-1.663957	
4193.617499	-1.663839	
4193.619499	-1.663819	
4193.621499	-1.663654	
4193.623499	-1.663588	
4193.627499	-1.663462	
4193.629498	-1.663251	
4193.631499	-1.663231	
4193.633498	-1.663136	
4193.635499	-1.663024	
4193.637499	-1.662907	
4193.639499	-1.649203	
4193.641499	-1.566197	
4193.643499	-1.474277	
4193.647498	-1.371866	
4193.649500	-1.177605	
4193.651499	-1.071307	
4193.653499	-0.975270	
4193.655499	-0.871862	
4193.657498	-0.764791	
4193.659499	-0.662081	
4193.661499	-0.558046	
4193.663499	-0.457411	
4193.665499	-0.352576	
4193.667498	-0.244569	
4193.671499	-0.139992	
4193.673498	0.068937	
4193.675499	0.178430	
4193.677499	0.281128	
4193.679499	0.391805	
4193.681498	0.480861	
4193.685498	0.580195	
4193.687498	0.773251	
4193.691499	0.872305	
4193.693500	1.070050	
4193.695498	1.169805	
4193.697499	1.258466	
4193.699499	1.351534	
4193.701499	1.447723	
4193.703498	1.531471	
4193.707499	1.590318	
4193.711499	1.595140	
4193.713499	1.595170	
4193.715500	1.595136	
4193.717498	1.595123	
4193.719499	1.595141	
4193.721499	1.595150	
4193.723499	1.595147	
4193.727498	1.595104	
4193.731500	1.595218	
4193.733499	1.595184	
4193.735499	1.595121	
4193.737499	1.595146	
4193.739499	1.595124	
4193.741498	1.595124	
4193.743499	1.595148	
4193.745499	1.595198	
4193.749499	1.595192	
4193.751498	1.595237	
4193.753499	1.595197	
4193.755498	1.595121	
4193.757499	1.595186	
4193.759499	1.595142	
4193.761498	1.595161	
4193.763499	1.595129	
4193.765500	1.595121	
4193.767498	1.595191	
4193.769499	1.595145	
4193.773499	1.595214	
4193.775499	1.595175	
4193.777499	1.595202	
4193.779498	1.595134	
4193.781498	1.595168	
4193.783499	1.595129	
4193.787498	1.595145	
4193.789499	1.595224	
4193.793499	1.595199	
4193.795499	1.595193	
4193.797499	1.595134	
4193.799499	1.595083	
4193.801499	1.595120	
4193.803499	1.595143	
4193.807498	1.595146	
4193.809499	1.595206	
4193.813499	1.595192	
4193.815499	1.595129	
4193.817499	1.595117	
4193.819498	1.595141	
4193.821499	1.595146	
4193.823500	1.595177	
4193.825498	1.595151	
4193.829498	1.595150	
4193.833499	1.595167	
4193.835499	1.595082	
4193.837500	1.594727	
4193.839499	1.593416	
4193.841498	1.580383	
4193.843499	1.534512	
4193.845499	1.488153	
4193.849498	1.437027	
4193.853499	1.351604	
4193.855498	1.267262	
4193.857498	1.229694	
4193.859499	1.190365	
4193.861498	1.151870	
4193.863499	1.119365	
4193.865504	1.073987	
4193.869499	1.034177	
4193.873499	0.954598	
4193.875498	0.899073	
4193.877499	0.863402	
4193.879499	0.841348	
4193.881499	0.804673	
4193.883498	0.775678	
4193.885499	0.746153	
4193.887500	0.704704	
4193.891499	0.680265	
4193.893498	0.624774	
4193.895499	0.608640	
4193.897498	0.588331	
4193.899499	0.563658	
4193.901498	0.542620	
4193.903499	0.517570	
4193.905499	0.493828	
4193.907499	0.470349	
4193.909499	0.449121	
4193.911499	0.435008	
4193.915501	0.416425	
4193.917499	0.389609	
4193.919499	0.373290	
4193.921499	0.350036	
4193.923500	0.339542	
4193.925499	0.325355	
4193.929498	0.309416	
4193.931499	0.284270	
4193.935499	0.268384	
4193.937499	0.248898	
4193.939499	0.240177	
4193.941501	0.227177	
4193.943499	0.214652	
4193.945498	0.212426	
4193.949498	0.201898	
4193.951498	0.180954	
4193.955499	0.168281	
4193.957499	0.157527	
4193.959498	0.151735	
4193.961498	0.148206	
4193.963498	0.141642	
4193.965499	0.136588	
4193.969498	0.127928	
4193.971499	0.106332	
4193.975499	0.105595	
4193.977499	0.100577	
4193.979499	0.106177	
4193.981499	0.094637	
4193.983498	0.093125	
4193.985499	0.089862	
4193.987499	0.081137	
4193.991498	0.073948	
4193.995499	0.062808	
4193.997498	0.066308	
4193.999505	0.065808	
4194.001499	0.061454	
4194.003498	0.054964	
4194.005499	0.053659	
4194.007499	0.046445	
4194.011498	0.040683	
4194.015499	0.040214	
4194.017499	0.043593	
4194.019499	0.043119	
4194.021499	0.033130	
4194.023498	0.030857	
4194.025498	0.028463	
4194.027499	0.023845	
4194.031499	0.029852	
4194.035499	0.020890	
4194.037499	0.018313	
4194.039499	0.020987	
4194.041501	0.020018	
4194.043498	0.014525	
4194.045499	0.017952	
4194.047499	0.016122	
4194.051499	0.008234	
4194.055499	0.003304	
4194.057500	0.008487	
4194.059499	0.006332	
4194.061498	0.007202	
4194.063498	0.007397	
4194.065499	0.007272	
4194.069498	0.005079	
4194.071499	-0.007744	
4194.075499	-0.008688	
4194.077498	-0.002623	
4194.079498	0.008365	
4194.081498	0.001166	
4194.083499	0.002398	
4194.085499	0.003646	
4194.089499	-0.005703	
4194.091499	-0.009239	
4194.095499	-0.011573	
4194.097499	0.002058	
4194.099500	0.000678	
4194.101499	0.001413	
4194.103498	-0.003481	
4194.105498	-0.004555	
4194.109498	-0.003979	
4194.111500	-0.007887	
4194.115499	-0.004761	
4194.117499	0.000452	
4194.119499	0.000325	
4194.121499	-0.005943	
4194.123499	-0.003870	
4194.125499	-0.003329	
4194.129498	-0.007993	
4194.131499	-0.005602	
4194.135499	-0.003864	
4194.137500	-0.002979	
4194.139499	-0.001312	
4194.141506	-0.000161	
4194.143498	-0.003153	
4194.145499	0.002687	
4194.147498	0.001141	
4194.151499	-0.003325	
4194.155499	-0.005322	
4194.157499	0.000481	
4194.159498	0.000921	
4194.161499	0.002674	
4194.163499	0.003059	
4194.165499	0.004348	
4194.167499	0.002606	
4194.171499	-0.010342	
4194.175499	-0.007965	
4194.177500	-0.002650	
4194.179499	0.008024	
4194.181499	0.001885	
4194.183499	0.004461	
4194.185499	0.007331	
4194.189498	-0.003118	
4194.191499	-0.006438	
4194.195499	-0.009407	
4194.197498	0.002602	
4194.199499	0.003258	
4194.201499	0.003090	
4194.203498	-0.001848	
4194.205499	-0.000432	
4194.209498	-0.000446	
4194.211498	-0.001870	
4194.215499	-0.002373	
4194.217498	0.004433	
4194.219499	0.004968	
4194.221499	-0.001983	
4194.223499	-0.001084	
4194.225498	0.000359	
4194.229499	-0.003303	
4194.231498	-0.000488	
4194.235499	-0.000467	
4194.237498	0.000246	
4194.239499	0.004216	
4194.241499	0.003468	
4194.243500	0.000515	
4194.245499	0.007917	
4194.249498	0.007030	
4194.251498	0.000795	
4194.255499	-0.001166	
4194.257499	0.005233	
4194.259498	0.007484	
4194.261499	0.006884	
4194.263499	0.007269	
4194.265499	0.012115	
4194.269499	0.009579	
4194.271499	-0.001809	
4194.275499	-0.001521	
4194.277499	0.007480	
4194.279507	0.013370	
4194.281498	0.009383	
4194.283499	0.008906	
4194.285498	0.013530	
4194.289499	0.004015	
4194.291499	0.001096	
4194.295498	-0.001868	
4194.297500	0.010394	
4194.299499	0.010868	
4194.301498	0.012207	
4194.303499	0.005728	
4194.305499	0.005201	
4194.309498	0.002929	
4194.311499	0.000677	
4194.315499	0.001474	
4194.317499	0.006900	
4194.319498	0.009172	
4194.321499	-0.000245	
4194.323498	0.002084	
4194.325500	0.001087	
4194.329499	-0.004170	
4194.331499	-0.005993	
4194.335500	-0.002497	
4194.337499	-0.006219	
4194.339499	-0.003178	
4194.341499	-0.005335	
4194.343499	-0.008581	
4194.345498	-0.003320	
4194.349499	-0.007781	
4194.353498	-0.009368	
4194.355499	-0.017435	
4194.357498	-0.011296	
4194.359499	-0.010907	
4194.361498	-0.012100	
4194.363499	-0.011865	
4194.365499	-0.012408	
4194.369498	-0.015172	
4194.371499	-0.031838	
4194.375499	-0.024311	
4194.377498	-0.025064	
4194.379498	-0.014595	
4194.381499	-0.024236	
4194.383499	-0.022646	
4194.385499	-0.021320	
4194.389498	-0.033222	
4194.393498	-0.038761	
4194.395500	-0.042187	
4194.397498	-0.036879	
4194.399499	-0.038956	
4194.401498	-0.040790	
4194.403499	-0.048852	
4194.405498	-0.050818	
4194.409498	-0.050032	
4194.411499	-0.061940	
4194.415503	-0.064736	
4194.417499	-0.065157	
4194.419499	-0.065725	
4194.421499	-0.079782	
4194.423499	-0.081068	
4194.425499	-0.084301	
4194.427498	-0.093099	
4194.431499	-0.093646	
4194.435499	-0.104646	
4194.437498	-0.116104	
4194.439499	-0.121132	
4194.441498	-0.128388	
4194.443499	-0.137073	
4194.445498	-0.138178	
4194.447499	-0.148535	
4194.451498	-0.158911	
4194.455501	-0.179473	
4194.457499	-0.191202	
4194.459499	-0.202252	
4194.461500	-0.208675	
4194.463499	-0.217449	
4194.465498	-0.229096	
4194.467499	-0.237641	
4194.471498	-0.255355	
4194.475499	-0.285793	
4194.477498	-0.308770	
4194.479498	-0.310693	
4194.481498	-0.328723	
4194.483499	-0.344669	
4194.485498	-0.356306	
4194.487498	-0.379809	
4194.491499	-0.398582	
4194.495499	-0.432530	
4194.497499	-0.458012	
4194.499499	-0.477628	
4194.501498	-0.493825	
4194.503499	-0.521131	
4194.505498	-0.542716	
4194.509498	-0.563921	
4194.511498	-0.610732	
4194.515499	-0.636304	
4194.517499	-0.678942	
4194.519499	-0.701969	
4194.521499	-0.736816	
4194.523498	-0.763973	
4194.525499	-0.791182	
4194.529498	-0.823871	
4194.531499	-0.883634	
4194.535499	-0.913434	
4194.537499	-0.980923	
4194.539499	-1.012265	
4194.541499	-1.048929	
4194.543499	-1.087395	
4194.545499	-1.119728	
4194.547499	-1.159776	
4194.549499	-1.205166	
4194.551499	-1.238995	
4194.555500	-1.285557	
4194.557499	-1.371830	
4194.559498	-1.411470	
4194.561499	-1.454802	
4194.563498	-1.502236	
4194.565498	-1.549394	
4194.567498	-1.596832	
4194.569499	-1.644472	
4194.571500	-1.662835	
4194.573499	-1.662899	
4194.577498	-1.662977	
4194.579499	-1.663067	
4194.581499	-1.663168	
4194.583498	-1.663194	
4194.585499	-1.663248	
4194.587500	-1.663341	
4194.589499	-1.663385	
4194.591499	-1.663454	
4194.593498	-1.663557	
4194.595499	-1.663559	
4194.599498	-1.663658	
4194.601499	-1.663791	
4194.603498	-1.663852	
4194.605499	-1.663955	
4194.607499	-1.663961	
4194.609498	-1.664052	
4194.611498	-1.664088	
4194.613498	-1.664104	
4194.615499	-1.664188	
4194.617499	-1.664140	
4194.621498	-1.664204	
4194.623499	-1.664227	
4194.625498	-1.664253	
4194.627499	-1.664283	
4194.629498	-1.664279	
4194.631498	-1.664284	
4194.633499	-1.664256	
4194.635499	-1.664274	
4194.637499	-1.664280	
4194.639498	-1.664246	
4194.641499	-1.664298	
4194.645499	-1.664268	
4194.647499	-1.664276	
4194.649499	-1.664279	
4194.651499	-1.664271	
4194.653499	-1.664289	
4194.655499	-1.664234	
4194.657498	-1.664247	
4194.659499	-1.664194	
4194.661498	-1.664160	
4194.663498	-1.664103	
4194.667499	-1.664028	
4194.669498	-1.663926	
4194.671498	-1.663908	
4194.673499	-1.663792	
4194.675499	-1.663689	
4194.677499	-1.663610	
4194.681498	-1.663493	
4194.685498	-1.663336	
4194.687499	-1.663191	
4194.689498	-1.663124	
4194.691499	-1.662986	
4194.693499	-1.662929	
4194.695499	-1.662826	
4194.697500	-1.637540	
4194.699499	-1.552893	
4194.701499	-1.466612	
4194.703498	-1.384303	
4194.707498	-1.300842	
4194.709500	-1.122940	
4194.711498	-1.025691	
4194.713499	-0.930939	
4194.715499	-0.836816	
4194.717498	-0.741786	
4194.719499	-0.643797	
4194.721500	-0.559173	
4194.723499	-0.464841	
4194.725498	-0.370455	
4194.727498	-0.276701	
4194.731499	-0.166379	
4194.733499	0.037254	
4194.735499	0.138769	
4194.737499	0.227499	
4194.739499	0.325306	
4194.741500	0.422299	
4194.745498	0.509149	
4194.749498	0.706214	
4194.751500	0.903017	
4194.753499	0.999057	
4194.755498	1.094748	
4194.757498	1.189838	
4194.759498	1.277719	
4194.761498	1.370172	
4194.765498	1.462852	
4194.767499	1.593456	
4194.771499	1.595133	
4194.773499	1.595234	
4194.775499	1.595129	
4194.777499	1.595166	
4194.779499	1.595154	
4194.781499	1.595148	
4194.785499	1.595191	
4194.787498	1.595264	
4194.791499	1.595203	
4194.793498	1.595201	
4194.795500	1.595129	
4194.797499	1.595207	
4194.799499	1.595135	
4194.801499	1.595163	
4194.803499	1.595231	
4194.807499	1.595150	
4194.811499	1.595256	
4194.813499	1.595149	
4194.815499	1.595150	
4194.817500	1.595190	
4194.819499	1.595178	
4194.821498	1.595150	
4194.823499	1.595147	
4194.827498	1.595202	
4194.831499	1.595212	
4194.833498	1.595168	
4194.835499	1.595114	
4194.837499	1.595162	
4194.839499	1.595200	
4194.841499	1.595112	
4194.843499	1.595153	
4194.847498	1.595186	
4194.851499	1.595161	
4194.853499	1.595149	
4194.855498	1.595203	
4194.857499	1.595095	
4194.859499	1.595138	
4194.861499	1.595160	
4194.863499	1.595158	
4194.867499	1.595115	
4194.871499	1.595203	
4194.873499	1.595148	
4194.875498	1.595116	
4194.877501	1.595129	
4194.879499	1.595158	
4194.881498	1.595121	
4194.883498	1.595124	
4194.885498	1.595144	
4194.889499	1.595187	
4194.891499	1.595109	
4194.893499	1.595073	
4194.895498	1.594733	
4194.897499	1.593564	
4194.899499	1.581515	
4194.901500	1.543602	
4194.903499	1.488054	
4194.905498	1.433762	
4194.907500	1.391288	
4194.911498	1.342687	
