num crossings	time (s)	maj axis (mm)	min axis (mm)	theta (rad )	slope (V/s)
2503	2724.761687	70.953861	-11.509773	3.607786	52.674416
2507	2728.933021	70.822631	-11.422457	3.603850	50.988607
2509	2731.016575	70.747021	-11.394921	3.601811	49.525133
2513	2735.186232	70.565776	-11.319414	3.596590	51.112724
2517	2739.355782	70.400572	-11.228711	3.591869	50.477213
2519	2741.441711	70.199854	-11.176474	3.589986	51.353266
2523	2745.613085	70.120416	-11.101388	3.589894	48.731408
2525	2747.698078	70.139754	-11.044856	3.585475	51.415734
2527	2749.780831	70.021712	-10.996790	3.581108	49.449708
2531	2753.950518	69.798281	-10.874653	3.576597	51.937841
2533	2756.036640	69.619700	-10.837119	3.574977	48.379200
2535	2758.122160	69.523517	-10.794041	3.574286	51.881047
2537	2760.208123	69.476343	-10.779671	3.573377	49.974409
2539	2762.292903	69.424546	-10.689630	3.571430	50.645776
2541	2764.377185	69.377893	-10.629566	3.569128	49.376938
2543	2766.462871	69.284203	-10.569399	3.567096	48.958677
2545	2768.547116	69.213487	-10.514937	3.564470	50.309450
2547	2770.632435	69.118036	-10.468998	3.562352	49.532565
2549	2772.717865	69.037390	-10.428743	3.560198	49.542154
2551	2774.802219	68.969163	-10.373621	3.557856	49.253064
2553	2776.887606	68.910154	-10.343564	3.555608	51.186991
2555	2778.971572	68.876973	-10.275294	3.553594	50.462724
2557	2781.055418	68.857379	-10.210744	3.553300	51.073277
2559	2783.139212	68.720808	-10.153254	3.553663	50.240917
2561	2785.223552	68.513108	-10.127729	3.552405	48.929524
2565	2789.396116	68.301384	-10.021295	3.545170	50.042157
2567	2791.481561	68.278800	-9.982960	3.542868	48.305768
2569	2793.566431	68.313408	-9.935671	3.540565	50.128559
2571	2795.650870	68.256415	-9.883435	3.539797	48.598759
2573	2797.734622	68.207775	-9.828054	3.539324	49.265512
2575	2799.818613	68.097057	-9.776405	3.539256	50.801923
2577	2801.903086	67.945158	-9.724320	3.537951	48.964268
2581	2806.072658	67.700463	-9.620731	3.533810	49.475734
2583	2808.157874	67.630892	-9.564715	3.531607	48.661458
2587	2812.328022	67.499652	-9.462751	3.527624	49.234565
2589	2814.412644	67.435663	-9.409123	3.525707	49.189375
2591	2816.496967	67.382173	-9.361727	3.523787	47.853617
2595	2820.668114	67.209047	-9.251463	3.519596	48.971451
2597	2822.753930	67.064759	-9.194329	3.518009	48.010089
2601	2826.925089	66.893005	-9.099171	3.517341	47.074266
2603	2829.009681	66.917445	-9.047776	3.515980	46.784518
2605	2831.093828	66.872531	-8.989323	3.512770	46.781225
2609	2835.261609	66.678642	-8.871271	3.507666	48.012787
2611	2837.346222	66.609797	-8.817792	3.506003	47.423259
2613	2839.431450	66.523291	-8.768113	3.504082	48.802372
2615	2841.516890	66.409401	-8.719278	3.502497	47.077504
2617	2843.603266	66.319269	-8.673263	3.501035	47.459523
2621	2847.773294	66.165705	-8.587070	3.498322	47.369872
2623	2849.858081	66.103349	-8.524503	3.496679	44.870319
2627	2854.027076	66.010375	-8.424568	3.493195	47.320420
2629	2856.111478	65.968797	-8.365501	3.491898	47.266558
2631	2858.196094	65.905396	-8.303277	3.491680	45.710154
2635	2862.364169	65.639671	-8.178140	3.491534	46.053242
2637	2864.449075	65.477527	-8.126874	3.489622	45.074890
2639	2866.535271	65.376350	-8.075371	3.486590	45.476390
2643	2870.706708	65.296877	-7.964686	3.482610	46.363551
2645	2872.791622	65.249607	-7.917282	3.480892	46.017623
2647	2874.876337	65.206308	-7.865171	3.479342	47.083951
2649	2876.960202	65.170170	-7.802842	3.477979	45.868173
2651	2879.044222	65.122633	-7.743835	3.477237	45.145819
2653	2881.128719	65.052695	-7.679414	3.476914	46.894006
2655	2883.212513	64.955899	-7.618636	3.476162	45.727149
2659	2887.382078	64.804530	-7.494669	3.473831	46.277710
2661	2889.466352	64.684692	-7.436199	3.472428	45.112143
2663	2891.551074	64.607891	-7.369629	3.471081	45.367404
2667	2895.721097	64.480110	-7.240970	3.467761	45.185809
2669	2897.806182	64.372231	-7.190322	3.465934	45.422688
2673	2901.977460	64.140610	-7.068189	3.463551	44.891093
2677	2906.148005	63.945796	-6.946864	3.463166	45.256503
2679	2908.233118	63.918156	-6.878939	3.462677	45.184330
2683	2912.401555	63.851880	-6.754995	3.459571	44.726746
2685	2914.485265	63.747937	-6.695309	3.457316	46.083718
2687	2916.569075	63.681055	-6.627553	3.455152	45.034682
2691	2920.738136	63.527437	-6.504934	3.452819	45.174741
2693	2922.823228	63.462127	-6.448304	3.451620	45.895335
2695	2924.907631	63.395298	-6.386189	3.450230	45.075463
2697	2926.992864	63.334739	-6.321732	3.448777	44.591015
2701	2931.162988	63.177843	-6.219418	3.446713	44.506276
2703	2933.247483	63.119947	-6.162218	3.445886	45.188573
2705	2935.332911	63.054314	-6.103343	3.445519	44.928580
2709	2939.500599	62.879229	-5.957612	3.445234	45.446467
2711	2941.584761	62.719092	-5.902622	3.444878	43.806455
2715	2945.754797	62.438151	-5.770005	3.442064	44.728575
2717	2947.840635	62.369854	-5.702916	3.440316	42.910264
2719	2949.926087	62.301765	-5.633595	3.438741	43.372256
2723	2954.096918	62.204976	-5.516966	3.437050	43.980480
2725	2956.181141	62.157281	-5.454910	3.436066	43.032013
2727	2958.265752	62.108401	-5.389545	3.435120	43.829208
2731	2962.434150	62.016843	-5.251945	3.433571	43.838325
2733	2964.518607	61.939705	-5.189287	3.432802	43.146038
2735	2966.603231	61.867011	-5.134362	3.431978	43.357105
2739	2970.772130	61.722469	-5.005740	3.430447	43.132203
2741	2972.856641	61.644357	-4.951007	3.429574	43.342834
2743	2974.941701	61.546261	-4.890530	3.428647	43.375734
2745	2977.026521	61.454857	-4.830306	3.427631	43.686279
2749	2981.196451	61.278556	-4.685390	3.425942	42.996255
2751	2983.281765	61.156364	-4.637227	3.425880	42.833597
2753	2985.366621	61.071669	-4.563349	3.426080	42.222148
2757	2989.536169	60.958581	-4.429556	3.425769	43.312540
2759	2991.620957	60.911794	-4.360441	3.425203	41.687461
2761	2993.704963	60.865508	-4.292436	3.423895	41.725409
2765	2997.873489	60.721830	-4.151655	3.420880	42.420939
2767	2999.956366	60.629928	-4.104524	3.419872	41.278544
2769	3002.040577	60.568431	-4.034065	3.419201	41.255467
2773	3006.210145	60.445835	-3.905080	3.418013	40.768483
2775	3008.294213	60.374956	-3.834172	3.417542	42.402847
2777	3010.379864	60.303034	-3.774802	3.416935	40.778859
2779	3012.463893	60.234373	-3.712796	3.416548	41.976125
2781	3014.548713	60.163138	-3.654320	3.416305	41.217569
2785	3018.717233	60.009762	-3.520051	3.415860	39.517603
2787	3020.802160	59.908493	-3.470914	3.415756	40.610121
2789	3022.886619	59.798842	-3.415474	3.415443	40.703331
2791	3024.971402	59.678841	-3.360546	3.414528	40.093306
2795	3029.141977	59.490327	-3.224729	3.412196	39.371696
2797	3031.227489	59.412448	-3.172265	3.411203	40.196993
2801	3035.398144	59.293205	-3.056297	3.409970	39.824183
2803	3037.482317	59.237323	-3.000052	3.409667	40.483181
2807	3041.651604	59.115357	-2.875787	3.408485	40.271125
2809	3043.736338	59.067061	-2.815923	3.408142	39.832954
2811	3045.820445	59.021008	-2.762500	3.407937	38.582890
2815	3049.988758	58.948331	-2.640263	3.407176	39.517214
2817	3052.073466	58.892690	-2.538868	3.406252	39.410550
